################################################################################
#
# Description: Pelastic
# Species:
# Data source: M. Becker et al. Comput. Phys. Commun. 180 (2009) 1230
# Data:        Umean [eV]  Pelastic/N [eV m^3/s]
# Dependence:  Umean
# Comment:
#
################################################################################

3.53075E-02    3.11140E-27
3.55969E-02    8.67083E-24
3.66097E-02    3.57757E-23
3.87476E-02    8.46297E-23
4.25571E-02    1.60340E-22
4.85615E-02    2.68664E-22
5.70866E-02    4.14328E-22
6.81288E-02    5.99339E-22
8.13266E-02    8.22053E-22
9.60496E-02    1.07745E-21
1.11559E-01    1.35842E-21
2.29755E-01    4.48220E-21
2.84917E-01    7.56684E-21
3.20490E-01    1.07682E-20
3.48675E-01    1.41338E-20
3.73009E-01    1.76591E-20
3.94913E-01    2.13321E-20
4.15101E-01    2.51418E-20
4.33992E-01    2.90786E-20
4.51856E-01    3.31346E-20
5.99628E-01    7.91552E-20
7.19623E-01    1.32777E-19
8.24039E-01    1.91663E-19
9.17097E-01    2.54468E-19
1.00150E+00    3.20476E-19
1.07917E+00    3.89262E-19
1.15146E+00    4.60523E-19
1.21932E+00    5.34027E-19
1.28346E+00    6.09581E-19
1.56388E+00    1.01341E-18
1.79937E+00    1.45219E-18
2.18878E+00    2.40323E-18
2.50737E+00    3.42332E-18
2.78012E+00    4.49670E-18
3.02138E+00    5.61619E-18
3.23987E+00    6.77754E-18
3.44124E+00    7.97806E-18
3.62945E+00    9.21618E-18
3.80726E+00    1.04902E-17
3.89284E+00    1.11394E-17
3.97635E+00    1.17951E-17
4.05777E+00    1.24554E-17
4.13700E+00    1.31175E-17
4.21386E+00    1.37780E-17
4.28811E+00    1.44328E-17
4.35946E+00    1.50776E-17
4.42767E+00    1.57082E-17
4.49250E+00    1.63204E-17
4.55376E+00    1.69109E-17
4.61135E+00    1.74767E-17
4.66524E+00    1.80159E-17
4.71544E+00    1.85269E-17
4.76204E+00    1.90094E-17
4.80517E+00    1.94632E-17
4.84502E+00    1.98888E-17
4.88177E+00    2.02872E-17
4.91564E+00    2.06596E-17
4.94684E+00    2.10074E-17
4.97559E+00    2.13321E-17
5.00210E+00    2.16353E-17
5.02658E+00    2.19186E-17
5.04920E+00    2.21834E-17
5.07016E+00    2.24313E-17
5.08960E+00    2.26637E-17
5.10768E+00    2.28818E-17
5.12453E+00    2.30870E-17
5.14028E+00    2.32803E-17
5.15503E+00    2.34627E-17
5.16889E+00    2.36353E-17
5.18194E+00    2.37988E-17
5.19426E+00    2.39541E-17
5.20592E+00    2.41018E-17
5.21699E+00    2.42427E-17
5.22752E+00    2.43772E-17
5.23756E+00    2.45060E-17
5.24716E+00    2.46294E-17
5.25637E+00    2.47480E-17
5.26521E+00    2.48621E-17
5.27372E+00    2.49721E-17
5.28986E+00    2.51809E-17
5.30498E+00    2.53767E-17
5.31926E+00    2.55614E-17
5.33282E+00    2.57364E-17
5.34576E+00    2.59031E-17
5.35818E+00    2.60624E-17
5.37014E+00    2.62153E-17
5.38171E+00    2.63625E-17
5.39293E+00    2.65046E-17
5.40384E+00    2.66422E-17
5.50157E+00    2.78455E-17
5.58691E+00    2.88582E-17
5.66460E+00    2.97586E-17
5.73644E+00    3.05789E-17
5.80343E+00    3.13362E-17
5.86624E+00    3.20415E-17
5.92543E+00    3.27028E-17
5.98142E+00    3.33260E-17
6.03458E+00    3.39161E-17
6.08523E+00    3.44769E-17
6.13364E+00    3.50117E-17
6.18005E+00    3.55233E-17
6.22465E+00    3.60141E-17
6.26763E+00    3.64861E-17
6.30915E+00    3.69410E-17
6.34932E+00    3.73803E-17
6.42612E+00    3.82172E-17
6.49881E+00    3.90055E-17
6.56802E+00    3.97520E-17
6.63425E+00    4.04619E-17
6.69789E+00    4.11397E-17
6.75928E+00    4.17889E-17
6.81869E+00    4.24125E-17
6.87637E+00    4.30130E-17
6.93250E+00    4.35926E-17
6.98726E+00    4.41532E-17
7.04081E+00    4.46963E-17
7.09327E+00    4.52235E-17
7.14477E+00    4.57361E-17
7.19539E+00    4.62352E-17
7.24525E+00    4.67217E-17
7.29441E+00    4.71968E-17
7.34296E+00    4.76611E-17
7.39096E+00    4.81155E-17
7.43847E+00    4.85607E-17
7.48555E+00    4.89973E-17
7.60166E+00    5.00549E-17
7.71601E+00    5.10700E-17
7.82914E+00    5.20489E-17
7.94144E+00    5.29967E-17
8.05327E+00    5.39175E-17
8.16490E+00    5.48147E-17
8.27653E+00    5.56911E-17
8.38837E+00    5.65491E-17
8.61320E+00    5.82166E-17
8.84030E+00    5.98293E-17
9.07033E+00    6.13954E-17
9.30372E+00    6.29210E-17
9.54081E+00    6.44107E-17
9.78184E+00    6.58679E-17
1.00270E+01    6.72957E-17
1.02763E+01    6.86961E-17
1.05300E+01    7.00713E-17
1.07880E+01    7.14229E-17
1.10504E+01    7.27525E-17
1.13172E+01    7.40614E-17
1.15883E+01    7.53507E-17
1.18636E+01    7.66218E-17
1.21432E+01    7.78757E-17
1.24270E+01    7.91134E-17
1.27149E+01    8.03357E-17
1.30067E+01    8.15436E-17
1.33024E+01    8.27379E-17
1.36020E+01    8.39193E-17
1.39053E+01    8.50887E-17
1.42122E+01    8.62467E-17
1.45225E+01    8.73940E-17
1.48364E+01    8.85313E-17
1.51535E+01    8.96591E-17
1.54740E+01    9.07793E-17
1.57974E+01    9.18899E-17
1.61239E+01    9.29927E-17
1.64534E+01    9.40881E-17
1.67857E+01    9.51767E-17
1.71208E+01    9.62589E-17
1.74586E+01    9.73352E-17
1.77990E+01    9.84059E-17
1.81420E+01    9.94715E-17
1.84874E+01    1.00532E-16
1.88354E+01    1.01588E-16
1.91857E+01    1.02641E-16
1.95379E+01    1.03687E-16
1.98928E+01    1.04732E-16
2.02500E+01    1.05774E-16
2.20676E+01    1.10943E-16
2.39353E+01    1.16066E-16
2.58505E+01    1.21165E-16
2.78116E+01    1.26255E-16
2.98180E+01    1.31349E-16
3.18695E+01    1.36454E-16
3.39658E+01    1.41571E-16
3.61096E+01    1.46712E-16
3.83007E+01    1.51876E-16
4.05404E+01    1.57061E-16
4.28292E+01    1.62268E-16
4.51697E+01    1.67496E-16
4.75623E+01    1.72745E-16
5.00084E+01    1.78012E-16
5.25092E+01    1.83295E-16
5.50659E+01    1.88594E-16
5.76796E+01    1.93905E-16
6.03514E+01    1.99228E-16
6.30824E+01    2.04560E-16
6.58712E+01    2.09884E-16
6.87236E+01    2.15231E-16
7.16381E+01    2.20584E-16
7.46154E+01    2.25940E-16
7.76522E+01    2.31300E-16
8.07578E+01    2.36661E-16
8.39285E+01    2.42025E-16
8.71651E+01    2.47388E-16
9.04681E+01    2.52753E-16
9.38381E+01    2.58118E-16
9.72758E+01    2.63483E-16
1.00763E+02    2.68812E-16
1.04338E+02    2.74179E-16
1.07982E+02    2.79546E-16
1.11695E+02    2.84914E-16
1.15479E+02    2.90284E-16
1.19332E+02    2.95655E-16
1.23256E+02    3.01028E-16
1.27251E+02    3.06405E-16
1.31317E+02    3.11786E-16
1.35454E+02    3.17171E-16
1.39650E+02    3.22584E-16
1.43931E+02    3.27981E-16
1.48283E+02    3.33385E-16
1.52708E+02    3.38797E-16
1.57205E+02    3.44220E-16
1.61774E+02    3.49653E-16
1.66415E+02    3.55098E-16
1.71129E+02    3.60556E-16
1.75916E+02    3.66028E-16
1.80775E+02    3.71516E-16
1.85688E+02    3.76768E-16
1.90693E+02    3.82296E-16
1.95771E+02    3.87842E-16
2.00921E+02    3.93408E-16
2.06145E+02    3.98994E-16
2.11441E+02    4.04602E-16
2.16810E+02    4.10233E-16
2.22251E+02    4.15888E-16
2.27766E+02    4.21567E-16
2.33353E+02    4.27272E-16
2.39013E+02    4.33003E-16
2.44746E+02    4.38762E-16
2.50551E+02    4.44550E-16
2.56429E+02    4.50367E-16
2.62381E+02    4.56214E-16
2.68404E+02    4.62092E-16
2.74501E+02    4.68001E-16
2.80671E+02    4.73943E-16
2.86913E+02    4.79917E-16
2.93228E+02    4.85925E-16
3.06006E+02    4.97669E-16
3.19155E+02    5.09939E-16
3.32599E+02    5.22350E-16
3.46338E+02    5.34905E-16
3.60375E+02    5.47605E-16
3.74712E+02    5.60451E-16
3.89350E+02    5.73442E-16
4.04293E+02    5.86577E-16
4.19543E+02    5.99855E-16
4.35105E+02    6.13273E-16
4.50853E+02    6.27279E-16
4.67057E+02    6.40949E-16
4.83587E+02    6.54748E-16
5.00446E+02    6.68673E-16
5.17642E+02    6.82717E-16
5.35180E+02    6.96875E-16
5.53068E+02    7.11141E-16
5.71312E+02    7.25508E-16
5.89920E+02    7.39970E-16
6.08901E+02    7.54519E-16
6.28054E+02    7.68329E-16
6.47814E+02    7.83063E-16
6.67975E+02    7.97860E-16
6.88545E+02    8.12711E-16
7.09535E+02    8.27610E-16
7.30957E+02    8.42548E-16
7.52821E+02    8.57517E-16
7.75140E+02    8.72509E-16
7.97925E+02    8.87517E-16
8.21190E+02    9.02532E-16
8.44715E+02    9.16080E-16
8.68986E+02    9.31123E-16
8.93777E+02    9.46148E-16
9.19100E+02    9.61148E-16
9.44973E+02    9.76117E-16
9.71408E+02    9.91046E-16
9.98422E+02    1.00593E-15
1.02603E+03    1.02076E-15
1.05425E+03    1.03553E-15
1.08310E+03    1.05023E-15
1.11221E+03    1.06356E-15
1.14237E+03    1.07814E-15
1.17321E+03    1.09264E-15
1.20475E+03    1.10704E-15
1.23701E+03    1.12135E-15
1.27000E+03    1.13555E-15
1.30374E+03    1.14965E-15
1.33826E+03    1.16364E-15
1.37357E+03    1.17750E-15
1.40970E+03    1.19125E-15
1.44667E+03    1.20487E-15
1.48449E+03    1.21836E-15
1.52320E+03    1.23171E-15
1.56281E+03    1.24492E-15
1.60335E+03    1.25799E-15
1.64483E+03    1.27092E-15
1.68730E+03    1.28370E-15
1.73076E+03    1.29632E-15
1.77525E+03    1.30879E-15
1.82078E+03    1.32110E-15
1.91553E+03    1.34521E-15
2.01442E+03    1.36869E-15
2.11807E+03    1.39149E-15
2.22672E+03    1.41358E-15
2.34063E+03    1.43497E-15
2.45986E+03    1.45496E-15
2.58511E+03    1.47492E-15
2.71647E+03    1.49413E-15
2.85422E+03    1.51259E-15
2.99870E+03    1.53030E-15
3.15024E+03    1.54725E-15
3.30920E+03    1.56344E-15
3.47596E+03    1.57886E-15
3.65092E+03    1.59352E-15
3.83449E+03    1.60742E-15
4.02785E+03    1.61936E-15
4.23011E+03    1.63176E-15
4.44241E+03    1.64339E-15
4.66526E+03    1.65427E-15
4.89923E+03    1.66439E-15
5.14489E+03    1.67377E-15
5.40288E+03    1.68239E-15
5.67384E+03    1.69028E-15
5.95847E+03    1.69743E-15
6.25752E+03    1.70385E-15
6.57547E+03    1.71049E-15
6.90645E+03    1.71544E-15
7.25450E+03    1.71967E-15
7.62061E+03    1.72319E-15
8.00584E+03    1.72601E-15
8.41131E+03    1.72812E-15
8.83822E+03    1.72954E-15
9.28788E+03    1.73026E-15
9.76168E+03    1.73030E-15
1.02611E+04    1.72965E-15
1.07951E+04    1.72426E-15
1.13519E+04    1.72231E-15
1.19399E+04    1.71969E-15
1.25612E+04    1.71639E-15
1.32181E+04    1.71241E-15
1.39131E+04    1.70774E-15
1.46489E+04    1.70238E-15
1.54740E+04    1.69708E-15
1.63044E+04    1.69034E-15
1.71864E+04    1.68289E-15
1.81240E+04    1.67473E-15
1.91221E+04    1.66584E-15
2.01859E+04    1.65622E-15
2.13212E+04    1.64584E-15
2.25348E+04    1.63469E-15
